编号/等级,伤害增加率,伤害增加绝对值,防御增加率,防御增加绝对值
ID,DmgRate,DmgAbs,ArmorRate,ArmorAbs
1,1.05,0 ,1.05,0 
2,1.1,0 ,1.1,0 
3,1.15,0 ,1.15,0 
4,1.25,10 ,1.25,5 
5,1.35,15 ,1.35,8 
6,1.45,20 ,1.45,10 
7,1.6,60 ,1.6,30 
8,1.75,80 ,1.75,40 
9,1.9,100 ,1.9,50 
10,2.1,150 ,2.1,100 
11,2.3,200 ,2.3,150 
12,2.5,250 ,2.5,200
13,2.7,300 ,2.7,300
14,3.0,350 ,3.0,350
15,3.3,400 ,3.3,400
16,3.5,450 ,3.5,450
17,3.7,500 ,3.7,500
18,4.0,550 ,4.0,550
19,4.3,600 ,4.3,600
20,4.5,650 ,4.5,650

